# Depth-Dose Distribution (PDD)
# Depth(mm) Dose(Gy)
# Bragg Peak at: 161 mm, 3.44845 Gy
0.0000	0.5442
1.0000	0.5432
2.0000	0.5428
3.0000	0.5429
4.0000	0.5434
5.0000	0.5441
6.0000	0.5448
7.0000	0.5456
8.0000	0.5464
9.0000	0.5473
10.0000	0.5481
11.0000	0.5489
12.0000	0.5497
13.0000	0.5506
14.0000	0.5514
15.0000	0.5523
16.0000	0.5531
17.0000	0.5540
18.0000	0.5549
19.0000	0.5557
20.0000	0.5566
21.0000	0.5575
22.0000	0.5584
23.0000	0.5593
24.0000	0.5602
25.0000	0.5611
26.0000	0.5620
27.0000	0.5630
28.0000	0.5639
29.0000	0.5648
30.0000	0.5658
31.0000	0.5668
32.0000	0.5677
33.0000	0.5687
34.0000	0.5697
35.0000	0.5706
36.0000	0.5716
37.0000	0.5726
38.0000	0.5736
39.0000	0.5747
40.0000	0.5757
41.0000	0.5767
42.0000	0.5778
43.0000	0.5788
44.0000	0.5799
45.0000	0.5810
46.0000	0.5820
47.0000	0.5831
48.0000	0.5842
49.0000	0.5853
50.0000	0.5865
51.0000	0.5877
52.0000	0.5891
53.0000	0.5906
54.0000	0.5925
55.0000	0.5946
56.0000	0.5966
57.0000	0.5987
58.0000	0.6009
59.0000	0.6031
60.0000	0.6053
61.0000	0.6076
62.0000	0.6099
63.0000	0.6122
64.0000	0.6145
65.0000	0.6170
66.0000	0.6193
67.0000	0.6218
68.0000	0.6243
69.0000	0.6268
70.0000	0.6293
71.0000	0.6318
72.0000	0.6344
73.0000	0.6370
74.0000	0.6396
75.0000	0.6423
76.0000	0.6450
77.0000	0.6478
78.0000	0.6505
79.0000	0.6534
80.0000	0.6562
81.0000	0.6588
82.0000	0.6612
83.0000	0.6634
84.0000	0.6648
85.0000	0.6659
86.0000	0.6680
87.0000	0.6708
88.0000	0.6740
89.0000	0.6773
90.0000	0.6806
91.0000	0.6840
92.0000	0.6875
93.0000	0.6910
94.0000	0.6944
95.0000	0.6979
96.0000	0.7015
97.0000	0.7045
98.0000	0.7075
99.0000	0.7109
100.0000	0.7150
101.0000	0.7190
102.0000	0.7231
103.0000	0.7272
104.0000	0.7314
105.0000	0.7357
106.0000	0.7400
107.0000	0.7443
108.0000	0.7487
109.0000	0.7529
110.0000	0.7569
111.0000	0.7607
112.0000	0.7653
113.0000	0.7708
114.0000	0.7767
115.0000	0.7837
116.0000	0.7910
117.0000	0.7985
118.0000	0.8062
119.0000	0.8142
120.0000	0.8219
121.0000	0.8295
122.0000	0.8377
123.0000	0.8461
124.0000	0.8551
125.0000	0.8645
126.0000	0.8741
127.0000	0.8840
128.0000	0.8941
129.0000	0.9046
130.0000	0.9154
131.0000	0.9265
132.0000	0.9380
133.0000	0.9505
134.0000	0.9640
135.0000	0.9786
136.0000	0.9955
137.0000	1.0130
138.0000	1.0323
139.0000	1.0505
140.0000	1.0683
141.0000	1.0892
142.0000	1.1112
143.0000	1.1350
144.0000	1.1607
145.0000	1.1902
146.0000	1.2243
147.0000	1.2609
148.0000	1.2999
149.0000	1.3430
150.0000	1.3933
151.0000	1.4506
152.0000	1.5159
153.0000	1.5938
154.0000	1.6871
155.0000	1.7993
156.0000	1.9438
157.0000	2.1432
158.0000	2.4131
159.0000	2.8195
160.0000	3.4209
161.0000	3.4485
162.0000	2.6702
163.0000	0.7957
164.0000	0.2800
165.0000	0.0530
166.0000	0.0161
167.0000	0.0055
168.0000	0.0012
169.0000	0.0000
170.0000	0.0000
171.0000	0.0000
172.0000	0.0000
173.0000	0.0000
174.0000	0.0000
175.0000	0.0000
176.0000	0.0000
177.0000	0.0000
178.0000	0.0000
179.0000	0.0000
180.0000	0.0000
181.0000	0.0000
182.0000	0.0000
183.0000	0.0000
184.0000	0.0000
185.0000	0.0000
186.0000	0.0000
187.0000	0.0000
188.0000	0.0000
189.0000	0.0000
190.0000	0.0000
191.0000	0.0000
192.0000	0.0000
193.0000	0.0000
194.0000	0.0000
195.0000	0.0000
196.0000	0.0000
197.0000	0.0000
198.0000	0.0000
199.0000	0.0000
200.0000	0.0000
201.0000	0.0000
202.0000	0.0000
203.0000	0.0000
204.0000	0.0000
205.0000	0.0000
206.0000	0.0000
207.0000	0.0000
208.0000	0.0000
209.0000	0.0000
210.0000	0.0000
211.0000	0.0000
212.0000	0.0000
213.0000	0.0000
214.0000	0.0000
215.0000	0.0000
216.0000	0.0000
217.0000	0.0000
218.0000	0.0000
219.0000	0.0000
220.0000	0.0000
221.0000	0.0000
222.0000	0.0000
223.0000	0.0000
224.0000	0.0000
225.0000	0.0000
226.0000	0.0000
227.0000	0.0000
228.0000	0.0000
229.0000	0.0000
230.0000	0.0000
231.0000	0.0000
232.0000	0.0000
233.0000	0.0000
234.0000	0.0000
235.0000	0.0000
236.0000	0.0000
237.0000	0.0000
238.0000	0.0000
239.0000	0.0000
240.0000	0.0000
241.0000	0.0000
242.0000	0.0000
243.0000	0.0000
244.0000	0.0000
245.0000	0.0000
246.0000	0.0000
247.0000	0.0000
248.0000	0.0000
249.0000	0.0000
250.0000	0.0000
251.0000	0.0000
252.0000	0.0000
253.0000	0.0000
254.0000	0.0000
255.0000	0.0000
256.0000	0.0000
257.0000	0.0000
258.0000	0.0000
259.0000	0.0000
260.0000	0.0000
261.0000	0.0000
262.0000	0.0000
263.0000	0.0000
264.0000	0.0000
265.0000	0.0000
266.0000	0.0000
267.0000	0.0000
268.0000	0.0000
269.0000	0.0000
270.0000	0.0000
271.0000	0.0000
272.0000	0.0000
273.0000	0.0000
274.0000	0.0000
275.0000	0.0000
276.0000	0.0000
277.0000	0.0000
278.0000	0.0000
279.0000	0.0000
280.0000	0.0000
281.0000	0.0000
282.0000	0.0000
283.0000	0.0000
284.0000	0.0000
285.0000	0.0000
286.0000	0.0000
287.0000	0.0000
288.0000	0.0000
289.0000	0.0000
290.0000	0.0000
291.0000	0.0000
292.0000	0.0000
293.0000	0.0000
294.0000	0.0000
295.0000	0.0000
296.0000	0.0000
297.0000	0.0000
298.0000	0.0000
299.0000	0.0000
300.0000	0.0000
301.0000	0.0000
302.0000	0.0000
303.0000	0.0000
304.0000	0.0000
305.0000	0.0000
306.0000	0.0000
307.0000	0.0000
308.0000	0.0000
309.0000	0.0000
310.0000	0.0000
311.0000	0.0000
312.0000	0.0000
313.0000	0.0000
314.0000	0.0000
315.0000	0.0000
316.0000	0.0000
317.0000	0.0000
318.0000	0.0000
319.0000	0.0000
